Data from Spectrum_Absorbance_10-34-04-847.txt Node
Date: Mon Feb 25 10:34:04 CET 2019
User: MyStuff
Spectrometer: S04995
Autoset integration time: false
Trigger mode: 0
Resolution mode: 1024 pixels
Integration Time (sec): 1,100800E-2
Scans to average: 10
Nonlinearity correction enabled: false
Boxcar width: 5
XAxis mode: Wavelengths
Baseline correction enabled: false
Stop averaging: false
Number of Pixels in Spectrum: 1024
>>>>>Begin Spectral Data<<<<<
337,164	0,01
337,621	-0
338,078	0
338,535	-0,01
338,992	-0,01
339,45	-0,01
339,907	-0
340,364	-0
340,821	-0
341,279	0
341,736	0
342,193	0
342,651	0
343,108	0
343,566	0,01
344,023	0,01
344,481	0,01
344,939	0
345,396	-0
345,854	-0
346,312	-0,01
346,77	0,01
347,228	0,01
347,685	0,01
348,143	0,02
348,601	0,03
349,059	0,03
349,517	0,03
349,975	0,03
350,433	0,04
350,892	0,05
351,35	0,05
351,808	0,04
352,266	0,04
352,724	0,04
353,183	0,03
353,641	0,04
354,1	0,04
354,558	0,05
355,016	0,05
355,475	0,05
355,933	0,05
356,392	0,05
356,851	0,06
357,309	0,06
357,768	0,07
358,227	0,07
358,686	0,07
359,144	0,07
359,603	0,07
360,062	0,08
360,521	0,08
360,98	0,09
361,439	0,09
361,898	0,09
362,357	0,1
362,816	0,1
363,275	0,1
363,735	0,11
364,194	0,11
364,653	0,11
365,112	0,11
365,572	0,12
366,031	0,12
366,49	0,12
366,95	0,13
367,409	0,13
367,869	0,14
368,328	0,14
368,788	0,14
369,248	0,15
369,707	0,16
370,167	0,16
370,627	0,16
371,087	0,16
371,546	0,16
372,006	0,17
372,466	0,17
372,926	0,17
373,386	0,17
373,846	0,18
374,306	0,18
374,766	0,18
375,226	0,19
375,687	0,2
376,147	0,2
376,607	0,2
377,067	0,21
377,528	0,21
377,988	0,22
378,448	0,23
378,909	0,23
379,369	0,23
379,83	0,23
380,29	0,24
380,751	0,24
381,211	0,24
381,672	0,25
382,133	0,26
382,593	0,26
383,054	0,26
383,515	0,26
383,976	0,27
384,437	0,28
384,898	0,28
385,359	0,28
385,82	0,29
386,281	0,29
386,742	0,3
387,203	0,3
387,664	0,3
388,125	0,31
388,586	0,31
389,048	0,32
389,509	0,32
389,97	0,33
390,432	0,33
390,893	0,33
391,354	0,34
391,816	0,34
392,277	0,35
392,739	0,35
393,2	0,35
393,662	0,36
394,124	0,36
394,585	0,36
395,047	0,37
395,509	0,37
395,971	0,37
396,433	0,38
396,895	0,38
397,356	0,39
397,818	0,39
398,28	0,39
398,742	0,4
399,204	0,4
399,667	0,4
400,129	0,4
400,591	0,41
401,053	0,41
401,515	0,41
401,978	0,42
402,44	0,42
402,902	0,42
403,365	0,42
403,827	0,43
404,29	0,43
404,752	0,43
405,215	0,43
405,677	0,44
406,14	0,44
406,603	0,44
407,065	0,44
407,528	0,45
407,991	0,45
408,454	0,45
408,917	0,45
409,379	0,46
409,842	0,46
410,305	0,46
410,768	0,46
411,231	0,46
411,695	0,46
412,158	0,47
412,621	0,47
413,084	0,47
413,547	0,47
414,01	0,48
414,474	0,48
414,937	0,48
415,4	0,48
415,864	0,49
416,327	0,49
416,791	0,49
417,254	0,49
417,718	0,49
418,182	0,49
418,645	0,49
419,109	0,5
419,573	0,5
420,036	0,5
420,5	0,5
420,964	0,5
421,428	0,5
421,892	0,5
422,356	0,5
422,82	0,5
423,284	0,51
423,748	0,51
424,212	0,51
424,676	0,51
425,14	0,51
425,604	0,51
426,068	0,51
426,533	0,51
426,997	0,51
427,461	0,51
427,926	0,52
428,39	0,52
428,855	0,52
429,319	0,51
429,784	0,51
430,248	0,51
430,713	0,51
431,177	0,51
431,642	0,51
432,107	0,51
432,572	0,51
433,036	0,51
433,501	0,51
433,966	0,51
434,431	0,51
434,896	0,51
435,361	0,51
435,826	0,51
436,291	0,51
436,756	0,51
437,221	0,51
437,686	0,51
438,151	0,51
438,617	0,51
439,082	0,51
439,547	0,5
440,013	0,5
440,478	0,5
440,943	0,5
441,409	0,5
441,874	0,5
442,34	0,49
442,805	0,49
443,271	0,49
443,737	0,49
444,202	0,49
444,668	0,48
445,134	0,48
445,6	0,48
446,065	0,48
446,531	0,47
446,997	0,47
447,463	0,47
447,929	0,47
448,395	0,46
448,861	0,46
449,327	0,46
449,793	0,45
450,26	0,45
450,726	0,45
451,192	0,44
451,658	0,44
452,125	0,43
452,591	0,43
453,057	0,43
453,524	0,42
453,99	0,42
454,457	0,41
454,923	0,41
455,39	0,4
455,856	0,4
456,323	0,39
456,79	0,39
457,256	0,38
457,723	0,38
458,19	0,37
458,657	0,37
459,124	0,36
459,59	0,36
460,057	0,35
460,524	0,35
460,991	0,34
461,458	0,34
461,926	0,33
462,393	0,33
462,86	0,32
463,327	0,32
463,794	0,32
464,261	0,31
464,729	0,31
465,196	0,3
465,663	0,3
466,131	0,29
466,598	0,29
467,066	0,28
467,533	0,28
468,001	0,27
468,469	0,27
468,936	0,26
469,404	0,26
469,872	0,26
470,339	0,25
470,807	0,25
471,275	0,24
471,743	0,24
472,211	0,23
472,679	0,23
473,147	0,22
473,615	0,22
474,083	0,21
474,551	0,21
475,019	0,2
475,487	0,2
475,955	0,19
476,423	0,19
476,892	0,18
477,36	0,17
477,828	0,17
478,297	0,16
478,765	0,16
479,233	0,15
479,702	0,15
480,17	0,14
480,639	0,14
481,108	0,13
481,576	0,13
482,045	0,12
482,514	0,12
482,982	0,11
483,451	0,11
483,92	0,1
484,389	0,09
484,858	0,09
485,327	0,08
485,796	0,08
486,265	0,07
486,734	0,07
487,203	0,06
487,672	0,06
488,141	0,05
488,61	0,05
489,079	0,04
489,549	0,04
490,018	0,04
490,487	0,03
490,957	0,03
491,426	0,02
491,895	0,02
492,365	0,02
492,834	0,01
493,304	0,01
493,774	0,01
494,243	0
494,713	0
495,183	-0
495,652	-0,01
496,122	-0,01
496,592	-0,01
497,062	-0,01
497,532	-0,02
498,001	-0,02
498,471	-0,02
498,941	-0,02
499,411	-0,02
499,881	-0,02
500,352	-0,03
500,822	-0,03
501,292	-0,03
501,762	-0,03
502,232	-0,03
502,703	-0,03
503,173	-0,04
503,643	-0,04
504,114	-0,04
504,584	-0,04
505,055	-0,04
505,525	-0,04
505,996	-0,04
506,466	-0,04
506,937	-0,04
507,407	-0,04
507,878	-0,04
508,349	-0,04
508,82	-0,05
509,29	-0,05
509,761	-0,05
510,232	-0,05
510,703	-0,05
511,174	-0,05
511,645	-0,05
512,116	-0,05
512,587	-0,05
513,058	-0,05
513,529	-0,05
514	-0,05
514,472	-0,05
514,943	-0,05
515,414	-0,05
515,885	-0,05
516,357	-0,05
516,828	-0,05
517,3	-0,05
517,771	-0,05
518,242	-0,05
518,714	-0,05
519,186	-0,05
519,657	-0,05
520,129	-0,05
520,6	-0,05
521,072	-0,05
521,544	-0,05
522,016	-0,05
522,488	-0,05
522,959	-0,05
523,431	-0,05
523,903	-0,05
524,375	-0,05
524,847	-0,05
525,319	-0,05
525,791	-0,05
526,263	-0,05
526,736	-0,05
527,208	-0,05
527,68	-0,05
528,152	-0,05
528,624	-0,05
529,097	-0,05
529,569	-0,05
530,042	-0,05
530,514	-0,05
530,986	-0,05
531,459	-0,05
531,932	-0,05
532,404	-0,05
532,877	-0,05
533,349	-0,05
533,822	-0,05
534,295	-0,05
534,768	-0,05
535,24	-0,05
535,713	-0,05
536,186	-0,05
536,659	-0,05
537,132	-0,05
537,605	-0,05
538,078	-0,05
538,551	-0,05
539,024	-0,05
539,497	-0,05
539,97	-0,05
540,444	-0,05
540,917	-0,05
541,39	-0,05
541,863	-0,05
542,337	-0,05
542,81	-0,05
543,284	-0,05
543,757	-0,05
544,231	-0,05
544,704	-0,05
545,178	-0,05
545,651	-0,05
546,125	-0,05
546,599	-0,05
547,072	-0,05
547,546	-0,05
548,02	-0,05
548,494	-0,05
548,967	-0,05
549,441	-0,05
549,915	-0,05
550,389	-0,05
550,863	-0,05
551,337	-0,05
551,811	-0,05
552,285	-0,05
552,76	-0,05
553,234	-0,05
553,708	-0,05
554,182	-0,05
554,657	-0,05
555,131	-0,05
555,605	-0,05
556,08	-0,05
556,554	-0,05
557,029	-0,05
557,503	-0,05
557,978	-0,05
558,452	-0,05
558,927	-0,05
559,401	-0,05
559,876	-0,05
560,351	-0,05
560,826	-0,05
561,3	-0,05
561,775	-0,05
562,25	-0,05
562,725	-0,05
563,2	-0,05
563,675	-0,05
564,15	-0,05
564,625	-0,05
565,1	-0,05
565,575	-0,05
566,05	-0,05
566,526	-0,05
567,001	-0,05
567,476	-0,05
567,951	-0,05
568,427	-0,05
568,902	-0,05
569,378	-0,05
569,853	-0,05
570,329	-0,05
570,804	-0,05
571,28	-0,05
571,755	-0,05
572,231	-0,05
572,707	-0,05
573,182	-0,05
573,658	-0,05
574,134	-0,05
574,61	-0,05
575,085	-0,05
575,561	-0,05
576,037	-0,05
576,513	-0,05
576,989	-0,05
577,465	-0,05
577,941	-0,05
578,417	-0,05
578,894	-0,05
579,37	-0,05
579,846	-0,05
580,322	-0,05
580,798	-0,05
581,275	-0,05
581,751	-0,05
582,228	-0,05
582,704	-0,05
583,18	-0,05
583,657	-0,05
584,133	-0,05
584,61	-0,05
585,087	-0,05
585,563	-0,05
586,04	-0,05
586,517	-0,05
586,993	-0,05
587,47	-0,05
587,947	-0,05
588,424	-0,05
588,901	-0,05
589,378	-0,05
589,855	-0,05
590,332	-0,05
590,809	-0,05
591,286	-0,05
591,763	-0,05
592,24	-0,05
592,717	-0,05
593,194	-0,05
593,672	-0,05
594,149	-0,05
594,626	-0,05
595,104	-0,05
595,581	-0,05
596,059	-0,05
596,536	-0,05
597,014	-0,05
597,491	-0,05
597,969	-0,05
598,446	-0,05
598,924	-0,05
599,402	-0,05
599,879	-0,05
600,357	-0,05
600,835	-0,05
601,313	-0,05
601,791	-0,05
602,269	-0,05
602,746	-0,05
603,224	-0,05
603,702	-0,05
604,181	-0,05
604,659	-0,05
605,137	-0,05
605,615	-0,05
606,093	-0,05
606,571	-0,05
607,05	-0,05
607,528	-0,05
608,006	-0,05
608,485	-0,05
608,963	-0,05
609,441	-0,05
609,92	-0,05
610,398	-0,05
610,877	-0,05
611,356	-0,05
611,834	-0,05
612,313	-0,05
612,792	-0,05
613,27	-0,05
613,749	-0,05
614,228	-0,05
614,707	-0,04
615,186	-0,04
615,664	-0,04
616,143	-0,04
616,622	-0,04
617,101	-0,04
617,58	-0,04
618,06	-0,04
618,539	-0,04
619,018	-0,04
619,497	-0,04
619,976	-0,04
620,456	-0,04
620,935	-0,04
621,414	-0,04
621,894	-0,04
622,373	-0,04
622,852	-0,04
623,332	-0,04
623,811	-0,04
624,291	-0,04
624,771	-0,04
625,25	-0,04
625,73	-0,04
626,21	-0,04
626,689	-0,04
627,169	-0,04
627,649	-0,04
628,129	-0,04
628,609	-0,04
629,089	-0,04
629,569	-0,04
630,049	-0,04
630,529	-0,04
631,009	-0,04
631,489	-0,04
631,969	-0,04
632,449	-0,04
632,929	-0,04
633,409	-0,04
633,89	-0,04
634,37	-0,04
634,85	-0,04
635,331	-0,04
635,811	-0,04
636,292	-0,04
636,772	-0,04
637,253	-0,04
637,733	-0,04
638,214	-0,04
638,694	-0,04
639,175	-0,04
639,656	-0,04
640,136	-0,04
640,617	-0,04
641,098	-0,04
641,579	-0,04
642,06	-0,04
642,541	-0,04
643,022	-0,04
643,503	-0,04
643,984	-0,04
644,465	-0,04
644,946	-0,04
645,427	-0,04
645,908	-0,04
646,389	-0,04
646,871	-0,04
647,352	-0,04
647,833	-0,04
648,314	-0,04
648,796	-0,04
649,277	-0,04
649,759	-0,04
650,24	-0,04
650,722	-0,04
651,203	-0,04
651,685	-0,04
652,167	-0,04
652,648	-0,04
653,13	-0,04
653,612	-0,04
654,093	-0,04
654,575	-0,04
655,057	-0,04
655,539	-0,04
656,021	-0,04
656,503	-0,04
656,985	-0,04
657,467	-0,04
657,949	-0,04
658,431	-0,04
658,913	-0,04
659,395	-0,04
659,877	-0,04
660,36	-0,04
660,842	-0,04
661,324	-0,04
661,807	-0,04
662,289	-0,04
662,771	-0,04
663,254	-0,04
663,736	-0,04
664,219	-0,04
664,701	-0,04
665,184	-0,04
665,667	-0,04
666,149	-0,04
666,632	-0,04
667,115	-0,04
667,597	-0,04
668,08	-0,04
668,563	-0,04
669,046	-0,04
669,529	-0,04
670,012	-0,04
670,495	-0,04
670,978	-0,04
671,461	-0,04
671,944	-0,04
672,427	-0,04
672,91	-0,04
673,393	-0,04
673,877	-0,04
674,36	-0,04
674,843	-0,04
675,327	-0,04
675,81	-0,04
676,293	-0,04
676,777	-0,04
677,26	-0,04
677,744	-0,04
678,227	-0,04
678,711	-0,04
679,195	-0,04
679,678	-0,04
680,162	-0,04
680,646	-0,04
681,129	-0,04
681,613	-0,04
682,097	-0,04
682,581	-0,04
683,065	-0,04
683,549	-0,04
684,033	-0,04
684,517	-0,04
685,001	-0,04
685,485	-0,04
685,969	-0,04
686,453	-0,04
686,937	-0,04
687,422	-0,04
687,906	-0,04
688,39	-0,04
688,874	-0,04
689,359	-0,04
689,843	-0,04
690,328	-0,04
690,812	-0,04
691,297	-0,04
691,781	-0,04
692,266	-0,04
692,75	-0,04
693,235	-0,04
693,72	-0,04
694,204	-0,04
694,689	-0,04
695,174	-0,04
695,659	-0,04
696,144	-0,04
696,628	-0,04
697,113	-0,04
697,598	-0,04
698,083	-0,04
698,568	-0,04
699,053	-0,04
699,539	-0,04
700,024	-0,04
700,509	-0,04
700,994	-0,04
701,479	-0,04
701,965	-0,04
702,45	-0,04
702,935	-0,04
703,421	-0,04
703,906	-0,04
704,392	-0,04
704,877	-0,04
705,363	-0,04
705,848	-0,04
706,334	-0,04
706,819	-0,04
707,305	-0,04
707,791	-0,04
708,277	-0,04
708,762	-0,04
709,248	-0,04
709,734	-0,04
710,22	-0,04
710,706	-0,04
711,192	-0,04
711,678	-0,04
712,164	-0,04
712,65	-0,04
713,136	-0,04
713,622	-0,04
714,108	-0,04
714,594	-0,04
715,081	-0,04
715,567	-0,04
716,053	-0,04
716,54	-0,04
717,026	-0,04
717,512	-0,04
717,999	-0,04
718,485	-0,04
718,972	-0,04
719,458	-0,04
719,945	-0,04
720,432	-0,04
720,918	-0,04
721,405	-0,04
721,892	-0,04
722,378	-0,04
722,865	-0,04
723,352	-0,04
723,839	-0,04
724,326	-0,04
724,813	-0,04
725,3	-0,04
725,787	-0,04
726,274	-0,04
726,761	-0,04
727,248	-0,04
727,735	-0,04
728,222	-0,04
728,71	-0,04
729,197	-0,04
729,684	-0,04
730,171	-0,04
730,659	-0,04
731,146	-0,04
731,634	-0,04
732,121	-0,04
732,609	-0,04
733,096	-0,04
733,584	-0,04
734,071	-0,04
734,559	-0,04
735,047	-0,04
735,534	-0,04
736,022	-0,04
736,51	-0,04
736,998	-0,04
737,486	-0,04
737,973	-0,04
738,461	-0,04
738,949	-0,04
739,437	-0,04
739,925	-0,04
740,413	-0,04
740,901	-0,04
741,39	-0,04
741,878	-0,04
742,366	-0,04
742,854	-0,04
743,342	-0,04
743,831	-0,04
744,319	-0,04
744,808	-0,04
745,296	-0,04
745,784	-0,04
746,273	-0,04
746,761	-0,04
747,25	-0,04
747,739	-0,04
748,227	-0,04
748,716	-0,04
749,204	-0,04
749,693	-0,04
750,182	-0,04
750,671	-0,04
751,16	-0,04
751,648	-0,04
752,137	-0,04
752,626	-0,04
753,115	-0,04
753,604	-0,04
754,093	-0,04
754,582	-0,04
755,072	-0,04
755,561	-0,04
756,05	-0,04
756,539	-0,04
757,028	-0,04
757,518	-0,04
758,007	-0,04
758,496	-0,04
758,986	-0,04
759,475	-0,04
759,965	-0,04
760,454	-0,04
760,944	-0,04
761,433	-0,04
761,923	-0,04
762,412	-0,04
762,902	-0,04
763,392	-0,04
763,882	-0,04
764,371	-0,04
764,861	-0,04
765,351	-0,04
765,841	-0,04
766,331	-0,04
766,821	-0,04
767,311	-0,04
767,801	-0,04
768,291	-0,04
768,781	-0,04
769,271	-0,04
769,761	-0,04
770,251	-0,04
770,742	-0,04
771,232	-0,04
771,722	-0,04
772,213	-0,04
772,703	-0,04
773,193	-0,04
773,684	-0,04
774,174	-0,04
774,665	-0,04
775,155	-0,04
775,646	-0,04
776,136	-0,04
776,627	-0,04
777,118	-0,04
777,609	-0,04
778,099	-0,04
778,59	-0,04
779,081	-0,04
779,572	-0,04
780,063	-0,04
780,554	-0,04
781,045	-0,04
781,536	-0,04
782,027	-0,04
782,518	-0,04
783,009	-0,04
783,5	-0,04
783,991	-0,04
784,482	-0,04
784,974	-0,04
785,465	-0,04
785,956	-0,04
786,447	-0,04
786,939	-0,04
787,43	-0,04
787,922	-0,04
788,413	-0,04
788,905	-0,04
789,396	-0,04
789,888	-0,04
790,379	-0,04
790,871	-0,04
791,363	-0,04
791,855	-0,04
792,346	-0,04
792,838	-0,04
793,33	-0,04
793,822	-0,04
794,314	-0,04
794,806	-0,04
795,298	-0,04
795,79	-0,04
796,282	-0,04
796,774	-0,04
797,266	-0,04
797,758	-0,04
798,25	-0,04
798,742	-0,04
799,235	-0,04
799,727	-0,04
800,219	-0,04
800,712	-0,04
801,204	-0,04
801,696	-0,04
802,189	-0,04
802,681	-0,04
803,174	-0,04
803,666	-0,04
804,159	-0,04
804,652	-0,04
805,144	-0,04
805,637	-0,04
806,13	-0,04
806,623	-0,04
807,115	-0,04
807,608	-0,04
808,101	-0,04
808,594	-0,04
809,087	-0,04
809,58	-0,04
810,073	-0,04
810,566	-0,04
811,059	-0,04
811,552	-0,04
812,045	-0,04
812,538	-0,04
813,032	-0,04
813,525	-0,04
814,018	-0,04
814,512	-0,04
815,005	-0,04
815,498	-0,04
815,992	-0,04
816,485	-0,04
816,979	-0,04
817,472	-0,04
817,966	-0,04
818,459	-0,04
818,953	-0,04
819,447	-0,04
819,94	-0,04
820,434	-0,04
820,928	-0,04
821,422	-0,04
821,916	-0,04
822,409	-0,04
822,903	-0,04
823,397	-0,04
823,891	-0,04
