Data from Spectrum_Absorbance_10-35-00-774.txt Node
Date: Mon Feb 25 10:35:00 CET 2019
User: MyStuff
Spectrometer: S04995
Autoset integration time: false
Trigger mode: 0
Resolution mode: 1024 pixels
Integration Time (sec): 1,100800E-2
Scans to average: 10
Nonlinearity correction enabled: false
Boxcar width: 5
XAxis mode: Wavelengths
Baseline correction enabled: false
Stop averaging: false
Number of Pixels in Spectrum: 1024
>>>>>Begin Spectral Data<<<<<
337,164	0,03
337,621	0,02
338,078	0,01
338,535	0,01
338,992	-0
339,45	-0
339,907	-0
340,364	-0,01
340,821	-0,02
341,279	-0,02
341,736	-0,02
342,193	-0,03
342,651	-0,02
343,108	-0,02
343,566	-0,02
344,023	-0,02
344,481	-0,03
344,939	-0,03
345,396	-0,04
345,854	-0,04
346,312	-0,04
346,77	-0,04
347,228	-0,04
347,685	-0,04
348,143	-0,04
348,601	-0,04
349,059	-0,03
349,517	-0,03
349,975	-0,03
350,433	-0,02
350,892	-0,02
351,35	-0,02
351,808	-0,02
352,266	-0,02
352,724	-0,01
353,183	-0,01
353,641	-0,01
354,1	-0,02
354,558	-0,02
355,016	-0,02
355,475	-0,02
355,933	-0,01
356,392	-0,01
356,851	-0
357,309	-0,01
357,768	-0,01
358,227	-0,01
358,686	-0,01
359,144	-0,01
359,603	-0,01
360,062	-0
360,521	0
360,98	-0
361,439	-0,01
361,898	-0,01
362,357	0
362,816	0
363,275	0
363,735	0
364,194	0,01
364,653	0,01
365,112	0,01
365,572	0,01
366,031	0,01
366,49	0,01
366,95	0,01
367,409	0,01
367,869	0,01
368,328	0,01
368,788	0,01
369,248	0,01
369,707	0,01
370,167	0,02
370,627	0,01
371,087	0,02
371,546	0,02
372,006	0,02
372,466	0,02
372,926	0,02
373,386	0,02
373,846	0,02
374,306	0,02
374,766	0,02
375,226	0,02
375,687	0,03
376,147	0,03
376,607	0,03
377,067	0,03
377,528	0,03
377,988	0,03
378,448	0,04
378,909	0,04
379,369	0,04
379,83	0,04
380,29	0,04
380,751	0,04
381,211	0,04
381,672	0,04
382,133	0,04
382,593	0,04
383,054	0,04
383,515	0,04
383,976	0,05
384,437	0,05
384,898	0,05
385,359	0,05
385,82	0,05
386,281	0,05
386,742	0,05
387,203	0,05
387,664	0,06
388,125	0,06
388,586	0,06
389,048	0,06
389,509	0,06
389,97	0,07
390,432	0,07
390,893	0,07
391,354	0,07
391,816	0,07
392,277	0,07
392,739	0,07
393,2	0,07
393,662	0,07
394,124	0,07
394,585	0,07
395,047	0,07
395,509	0,08
395,971	0,08
396,433	0,08
396,895	0,08
397,356	0,08
397,818	0,08
398,28	0,08
398,742	0,08
399,204	0,08
399,667	0,08
400,129	0,08
400,591	0,08
401,053	0,09
401,515	0,09
401,978	0,09
402,44	0,09
402,902	0,09
403,365	0,09
403,827	0,09
404,29	0,09
404,752	0,09
405,215	0,09
405,677	0,1
406,14	0,1
406,603	0,1
407,065	0,1
407,528	0,1
407,991	0,1
408,454	0,1
408,917	0,1
409,379	0,1
409,842	0,1
410,305	0,1
410,768	0,1
411,231	0,1
411,695	0,1
412,158	0,1
412,621	0,1
413,084	0,11
413,547	0,11
414,01	0,11
414,474	0,11
414,937	0,11
415,4	0,11
415,864	0,11
416,327	0,11
416,791	0,11
417,254	0,11
417,718	0,11
418,182	0,11
418,645	0,11
419,109	0,11
419,573	0,11
420,036	0,11
420,5	0,11
420,964	0,11
421,428	0,12
421,892	0,12
422,356	0,12
422,82	0,12
423,284	0,12
423,748	0,12
424,212	0,12
424,676	0,12
425,14	0,12
425,604	0,12
426,068	0,12
426,533	0,12
426,997	0,12
427,461	0,12
427,926	0,12
428,39	0,12
428,855	0,12
429,319	0,12
429,784	0,12
430,248	0,12
430,713	0,12
431,177	0,12
431,642	0,12
432,107	0,12
432,572	0,12
433,036	0,12
433,501	0,12
433,966	0,12
434,431	0,12
434,896	0,12
435,361	0,12
435,826	0,12
436,291	0,12
436,756	0,12
437,221	0,12
437,686	0,12
438,151	0,12
438,617	0,12
439,082	0,12
439,547	0,12
440,013	0,12
440,478	0,11
440,943	0,11
441,409	0,11
441,874	0,11
442,34	0,11
442,805	0,11
443,271	0,11
443,737	0,11
444,202	0,11
444,668	0,11
445,134	0,11
445,6	0,11
446,065	0,11
446,531	0,11
446,997	0,11
447,463	0,11
447,929	0,11
448,395	0,1
448,861	0,1
449,327	0,1
449,793	0,1
450,26	0,1
450,726	0,1
451,192	0,1
451,658	0,1
452,125	0,1
452,591	0,1
453,057	0,09
453,524	0,09
453,99	0,09
454,457	0,09
454,923	0,09
455,39	0,09
455,856	0,09
456,323	0,09
456,79	0,08
457,256	0,08
457,723	0,08
458,19	0,08
458,657	0,08
459,124	0,08
459,59	0,08
460,057	0,07
460,524	0,07
460,991	0,07
461,458	0,07
461,926	0,07
462,393	0,07
462,86	0,07
463,327	0,07
463,794	0,06
464,261	0,06
464,729	0,06
465,196	0,06
465,663	0,06
466,131	0,06
466,598	0,06
467,066	0,06
467,533	0,05
468,001	0,05
468,469	0,05
468,936	0,05
469,404	0,05
469,872	0,05
470,339	0,05
470,807	0,05
471,275	0,04
471,743	0,04
472,211	0,04
472,679	0,04
473,147	0,04
473,615	0,04
474,083	0,04
474,551	0,04
475,019	0,03
475,487	0,03
475,955	0,03
476,423	0,03
476,892	0,03
477,36	0,03
477,828	0,03
478,297	0,02
478,765	0,02
479,233	0,02
479,702	0,02
480,17	0,02
480,639	0,02
481,108	0,02
481,576	0,01
482,045	0,01
482,514	0,01
482,982	0,01
483,451	0,01
483,92	0,01
484,389	0,01
484,858	0
485,327	0
485,796	0
486,265	-0
486,734	-0
487,203	-0
487,672	-0
488,141	-0,01
488,61	-0,01
489,079	-0,01
489,549	-0,01
490,018	-0,01
490,487	-0,01
490,957	-0,01
491,426	-0,01
491,895	-0,01
492,365	-0,02
492,834	-0,02
493,304	-0,02
493,774	-0,02
494,243	-0,02
494,713	-0,02
495,183	-0,02
495,652	-0,02
496,122	-0,02
496,592	-0,02
497,062	-0,02
497,532	-0,02
498,001	-0,02
498,471	-0,03
498,941	-0,03
499,411	-0,03
499,881	-0,03
500,352	-0,03
500,822	-0,03
501,292	-0,03
501,762	-0,03
502,232	-0,03
502,703	-0,03
503,173	-0,03
503,643	-0,03
504,114	-0,03
504,584	-0,03
505,055	-0,03
505,525	-0,03
505,996	-0,03
506,466	-0,03
506,937	-0,03
507,407	-0,03
507,878	-0,03
508,349	-0,03
508,82	-0,03
509,29	-0,03
509,761	-0,03
510,232	-0,03
510,703	-0,03
511,174	-0,03
511,645	-0,03
512,116	-0,03
512,587	-0,03
513,058	-0,03
513,529	-0,03
514	-0,03
514,472	-0,03
514,943	-0,03
515,414	-0,03
515,885	-0,03
516,357	-0,03
516,828	-0,03
517,3	-0,03
517,771	-0,03
518,242	-0,03
518,714	-0,03
519,186	-0,03
519,657	-0,03
520,129	-0,03
520,6	-0,03
521,072	-0,03
521,544	-0,03
522,016	-0,03
522,488	-0,03
522,959	-0,03
523,431	-0,03
523,903	-0,03
524,375	-0,03
524,847	-0,03
525,319	-0,03
525,791	-0,03
526,263	-0,03
526,736	-0,03
527,208	-0,03
527,68	-0,03
528,152	-0,03
528,624	-0,03
529,097	-0,03
529,569	-0,03
530,042	-0,03
530,514	-0,03
530,986	-0,03
531,459	-0,03
531,932	-0,03
532,404	-0,03
532,877	-0,03
533,349	-0,03
533,822	-0,03
534,295	-0,03
534,768	-0,03
535,24	-0,03
535,713	-0,03
536,186	-0,03
536,659	-0,03
537,132	-0,03
537,605	-0,03
538,078	-0,03
538,551	-0,03
539,024	-0,03
539,497	-0,03
539,97	-0,03
540,444	-0,03
540,917	-0,03
541,39	-0,03
541,863	-0,03
542,337	-0,03
542,81	-0,03
543,284	-0,03
543,757	-0,03
544,231	-0,03
544,704	-0,03
545,178	-0,03
545,651	-0,03
546,125	-0,03
546,599	-0,03
547,072	-0,03
547,546	-0,03
548,02	-0,03
548,494	-0,03
548,967	-0,03
549,441	-0,03
549,915	-0,03
550,389	-0,03
550,863	-0,03
551,337	-0,03
551,811	-0,03
552,285	-0,03
552,76	-0,03
553,234	-0,03
553,708	-0,03
554,182	-0,03
554,657	-0,03
555,131	-0,03
555,605	-0,03
556,08	-0,03
556,554	-0,03
557,029	-0,03
557,503	-0,03
557,978	-0,03
558,452	-0,03
558,927	-0,03
559,401	-0,03
559,876	-0,03
560,351	-0,03
560,826	-0,03
561,3	-0,03
561,775	-0,03
562,25	-0,03
562,725	-0,03
563,2	-0,03
563,675	-0,03
564,15	-0,03
564,625	-0,03
565,1	-0,03
565,575	-0,03
566,05	-0,03
566,526	-0,03
567,001	-0,03
567,476	-0,03
567,951	-0,03
568,427	-0,03
568,902	-0,03
569,378	-0,03
569,853	-0,03
570,329	-0,03
570,804	-0,03
571,28	-0,03
571,755	-0,03
572,231	-0,03
572,707	-0,03
573,182	-0,03
573,658	-0,03
574,134	-0,03
574,61	-0,03
575,085	-0,03
575,561	-0,03
576,037	-0,03
576,513	-0,03
576,989	-0,03
577,465	-0,03
577,941	-0,03
578,417	-0,03
578,894	-0,03
579,37	-0,03
579,846	-0,03
580,322	-0,03
580,798	-0,03
581,275	-0,03
581,751	-0,03
582,228	-0,03
582,704	-0,03
583,18	-0,03
583,657	-0,03
584,133	-0,03
584,61	-0,03
585,087	-0,03
585,563	-0,03
586,04	-0,03
586,517	-0,03
586,993	-0,03
587,47	-0,03
587,947	-0,03
588,424	-0,03
588,901	-0,03
589,378	-0,03
589,855	-0,03
590,332	-0,03
590,809	-0,03
591,286	-0,02
591,763	-0,02
592,24	-0,02
592,717	-0,02
593,194	-0,02
593,672	-0,02
594,149	-0,02
594,626	-0,02
595,104	-0,02
595,581	-0,02
596,059	-0,02
596,536	-0,02
597,014	-0,02
597,491	-0,02
597,969	-0,02
598,446	-0,02
598,924	-0,02
599,402	-0,02
599,879	-0,02
600,357	-0,02
600,835	-0,02
601,313	-0,02
601,791	-0,02
602,269	-0,02
602,746	-0,02
603,224	-0,02
603,702	-0,02
604,181	-0,02
604,659	-0,02
605,137	-0,02
605,615	-0,02
606,093	-0,02
606,571	-0,02
607,05	-0,02
607,528	-0,02
608,006	-0,02
608,485	-0,02
608,963	-0,02
609,441	-0,02
609,92	-0,02
610,398	-0,02
610,877	-0,02
611,356	-0,02
611,834	-0,02
612,313	-0,02
612,792	-0,02
613,27	-0,02
613,749	-0,02
614,228	-0,02
614,707	-0,02
615,186	-0,02
615,664	-0,02
616,143	-0,02
616,622	-0,02
617,101	-0,02
617,58	-0,02
618,06	-0,02
618,539	-0,02
619,018	-0,02
619,497	-0,02
619,976	-0,02
620,456	-0,02
620,935	-0,02
621,414	-0,02
621,894	-0,02
622,373	-0,02
622,852	-0,02
623,332	-0,02
623,811	-0,02
624,291	-0,02
624,771	-0,02
625,25	-0,02
625,73	-0,02
626,21	-0,02
626,689	-0,02
627,169	-0,02
627,649	-0,02
628,129	-0,02
628,609	-0,02
629,089	-0,02
629,569	-0,02
630,049	-0,02
630,529	-0,02
631,009	-0,02
631,489	-0,02
631,969	-0,02
632,449	-0,02
632,929	-0,02
633,409	-0,02
633,89	-0,02
634,37	-0,02
634,85	-0,02
635,331	-0,02
635,811	-0,02
636,292	-0,02
636,772	-0,02
637,253	-0,02
637,733	-0,02
638,214	-0,02
638,694	-0,02
639,175	-0,02
639,656	-0,02
640,136	-0,02
640,617	-0,02
641,098	-0,02
641,579	-0,02
642,06	-0,02
642,541	-0,02
643,022	-0,02
643,503	-0,02
643,984	-0,02
644,465	-0,02
644,946	-0,02
645,427	-0,02
645,908	-0,02
646,389	-0,02
646,871	-0,02
647,352	-0,02
647,833	-0,02
648,314	-0,02
648,796	-0,02
649,277	-0,02
649,759	-0,02
650,24	-0,02
650,722	-0,02
651,203	-0,02
651,685	-0,02
652,167	-0,02
652,648	-0,02
653,13	-0,02
653,612	-0,02
654,093	-0,02
654,575	-0,02
655,057	-0,02
655,539	-0,02
656,021	-0,02
656,503	-0,02
656,985	-0,02
657,467	-0,02
657,949	-0,02
658,431	-0,02
658,913	-0,02
659,395	-0,02
659,877	-0,02
660,36	-0,02
660,842	-0,02
661,324	-0,02
661,807	-0,02
662,289	-0,02
662,771	-0,02
663,254	-0,02
663,736	-0,02
664,219	-0,02
664,701	-0,02
665,184	-0,02
665,667	-0,02
666,149	-0,02
666,632	-0,02
667,115	-0,02
667,597	-0,02
668,08	-0,02
668,563	-0,02
669,046	-0,02
669,529	-0,02
670,012	-0,02
670,495	-0,02
670,978	-0,02
671,461	-0,02
671,944	-0,02
672,427	-0,02
672,91	-0,02
673,393	-0,02
673,877	-0,02
674,36	-0,02
674,843	-0,02
675,327	-0,02
675,81	-0,02
676,293	-0,02
676,777	-0,02
677,26	-0,02
677,744	-0,02
678,227	-0,02
678,711	-0,02
679,195	-0,02
679,678	-0,02
680,162	-0,02
680,646	-0,02
681,129	-0,02
681,613	-0,02
682,097	-0,02
682,581	-0,02
683,065	-0,02
683,549	-0,02
684,033	-0,02
684,517	-0,02
685,001	-0,02
685,485	-0,02
685,969	-0,02
686,453	-0,02
686,937	-0,02
687,422	-0,02
687,906	-0,02
688,39	-0,02
688,874	-0,02
689,359	-0,02
689,843	-0,02
690,328	-0,02
690,812	-0,02
691,297	-0,02
691,781	-0,02
692,266	-0,02
692,75	-0,02
693,235	-0,02
693,72	-0,02
694,204	-0,02
694,689	-0,02
695,174	-0,02
695,659	-0,02
696,144	-0,02
696,628	-0,02
697,113	-0,02
697,598	-0,02
698,083	-0,02
698,568	-0,02
699,053	-0,02
699,539	-0,02
700,024	-0,02
700,509	-0,02
700,994	-0,02
701,479	-0,02
701,965	-0,02
702,45	-0,02
702,935	-0,02
703,421	-0,02
703,906	-0,02
704,392	-0,02
704,877	-0,02
705,363	-0,02
705,848	-0,02
706,334	-0,02
706,819	-0,02
707,305	-0,02
707,791	-0,02
708,277	-0,02
708,762	-0,02
709,248	-0,02
709,734	-0,02
710,22	-0,02
710,706	-0,02
711,192	-0,02
711,678	-0,02
712,164	-0,02
712,65	-0,02
713,136	-0,02
713,622	-0,02
714,108	-0,02
714,594	-0,02
715,081	-0,02
715,567	-0,02
716,053	-0,02
716,54	-0,02
717,026	-0,02
717,512	-0,02
717,999	-0,02
718,485	-0,02
718,972	-0,02
719,458	-0,02
719,945	-0,02
720,432	-0,02
720,918	-0,02
721,405	-0,02
721,892	-0,02
722,378	-0,02
722,865	-0,02
723,352	-0,02
723,839	-0,02
724,326	-0,02
724,813	-0,02
725,3	-0,02
725,787	-0,02
726,274	-0,02
726,761	-0,02
727,248	-0,02
727,735	-0,02
728,222	-0,02
728,71	-0,02
729,197	-0,02
729,684	-0,02
730,171	-0,02
730,659	-0,02
731,146	-0,02
731,634	-0,02
732,121	-0,02
732,609	-0,02
733,096	-0,02
733,584	-0,02
734,071	-0,02
734,559	-0,02
735,047	-0,02
735,534	-0,02
736,022	-0,02
736,51	-0,02
736,998	-0,02
737,486	-0,02
737,973	-0,02
738,461	-0,02
738,949	-0,02
739,437	-0,02
739,925	-0,02
740,413	-0,02
740,901	-0,02
741,39	-0,02
741,878	-0,02
742,366	-0,02
742,854	-0,02
743,342	-0,02
743,831	-0,02
744,319	-0,02
744,808	-0,02
745,296	-0,02
745,784	-0,02
746,273	-0,02
746,761	-0,02
747,25	-0,02
747,739	-0,02
748,227	-0,02
748,716	-0,02
749,204	-0,02
749,693	-0,02
750,182	-0,02
750,671	-0,02
751,16	-0,02
751,648	-0,02
752,137	-0,02
752,626	-0,02
753,115	-0,02
753,604	-0,02
754,093	-0,02
754,582	-0,02
755,072	-0,02
755,561	-0,02
756,05	-0,02
756,539	-0,02
757,028	-0,02
757,518	-0,02
758,007	-0,02
758,496	-0,02
758,986	-0,02
759,475	-0,02
759,965	-0,02
760,454	-0,02
760,944	-0,02
761,433	-0,02
761,923	-0,02
762,412	-0,02
762,902	-0,02
763,392	-0,02
763,882	-0,02
764,371	-0,02
764,861	-0,02
765,351	-0,02
765,841	-0,02
766,331	-0,02
766,821	-0,02
767,311	-0,02
767,801	-0,02
768,291	-0,02
768,781	-0,02
769,271	-0,02
769,761	-0,02
770,251	-0,02
770,742	-0,02
771,232	-0,02
771,722	-0,02
772,213	-0,02
772,703	-0,02
773,193	-0,02
773,684	-0,02
774,174	-0,02
774,665	-0,02
775,155	-0,02
775,646	-0,02
776,136	-0,02
776,627	-0,02
777,118	-0,02
777,609	-0,02
778,099	-0,02
778,59	-0,02
779,081	-0,02
779,572	-0,02
780,063	-0,02
780,554	-0,02
781,045	-0,02
781,536	-0,02
782,027	-0,02
782,518	-0,02
783,009	-0,02
783,5	-0,02
783,991	-0,02
784,482	-0,02
784,974	-0,02
785,465	-0,02
785,956	-0,02
786,447	-0,02
786,939	-0,02
787,43	-0,02
787,922	-0,02
788,413	-0,02
788,905	-0,02
789,396	-0,02
789,888	-0,02
790,379	-0,02
790,871	-0,02
791,363	-0,02
791,855	-0,02
792,346	-0,02
792,838	-0,02
793,33	-0,02
793,822	-0,02
794,314	-0,02
794,806	-0,02
795,298	-0,02
795,79	-0,02
796,282	-0,02
796,774	-0,02
797,266	-0,02
797,758	-0,02
798,25	-0,02
798,742	-0,02
799,235	-0,02
799,727	-0,02
800,219	-0,02
800,712	-0,02
801,204	-0,02
801,696	-0,02
802,189	-0,02
802,681	-0,02
803,174	-0,02
803,666	-0,02
804,159	-0,02
804,652	-0,02
805,144	-0,02
805,637	-0,02
806,13	-0,02
806,623	-0,02
807,115	-0,02
807,608	-0,02
808,101	-0,02
808,594	-0,02
809,087	-0,02
809,58	-0,02
810,073	-0,02
810,566	-0,02
811,059	-0,02
811,552	-0,02
812,045	-0,02
812,538	-0,02
813,032	-0,02
813,525	-0,02
814,018	-0,02
814,512	-0,02
815,005	-0,02
815,498	-0,02
815,992	-0,02
816,485	-0,02
816,979	-0,02
817,472	-0,02
817,966	-0,02
818,459	-0,02
818,953	-0,02
819,447	-0,02
819,94	-0,02
820,434	-0,02
820,928	-0,02
821,422	-0,02
821,916	-0,02
822,409	-0,02
822,903	-0,02
823,397	-0,02
823,891	-0,02
